# Wavelength  (nm), QE (%)
230.110114, 3.442348
230.112863, 3.443108
230.121058, 3.445374
230.134623, 3.449124
230.153482, 3.454341
230.177559, 3.461007
230.206777, 3.469106
230.241060, 3.478624
230.280331, 3.489550
230.324515, 3.501873
230.373534, 3.515582
230.427313, 3.530669
230.485776, 3.547129
230.548845, 3.564953
230.616444, 3.584139
230.688498, 3.604681
230.764929, 3.626578
230.845662, 3.649827
230.930621, 3.674427
231.019728, 3.700379
231.112907, 3.727683
231.210083, 3.756341
231.311179, 3.786354
231.416118, 3.817725
231.524824, 3.850458
231.637222, 3.884557
231.753233, 3.920025
231.872783, 3.956868
231.995795, 3.995090
232.122192, 4.034698
232.251899, 4.075697
232.384838, 4.118094
232.520934, 4.161894
232.660110, 4.207103
232.802290, 4.253730
232.947397, 4.301779
233.095356, 4.351258
233.246089, 4.402174
233.399521, 4.454532
233.555575, 4.508339
233.714175, 4.563602
233.875245, 4.620325
234.038707, 4.678514
234.204487, 4.738175
234.372507, 4.799311
234.542691, 4.861928
234.714963, 4.926028
234.889246, 4.991614
235.065465, 5.058688
235.243543, 5.127251
235.423403, 5.197305
235.604969, 5.268847
235.788165, 5.341877
235.972915, 5.416393
236.159141, 5.492389
236.346769, 5.569862
236.535721, 5.648804
236.725921, 5.729208
236.917294, 5.811064
237.109761, 5.894362
237.303248, 5.979088
237.497678, 6.065230
237.692974, 6.152769
237.889060, 6.241689
238.085860, 6.331969
238.283298, 6.423586
238.481297, 6.516518
238.679781, 6.610736
238.878673, 6.706211
239.077897, 6.802913
239.277377, 6.900808
239.477037, 6.999858
239.676800, 7.100024
239.876590, 7.201264
240.076330, 7.303534
240.275944, 7.406785
240.475356, 7.510967
240.674490, 7.616025
240.873269, 7.721903
241.071617, 7.828541
241.269457, 7.935874
241.466713, 8.043836
241.663309, 8.152358
241.859169, 8.261364
242.054216, 8.370780
242.248374, 8.480524
242.441566, 8.590512
242.633716, 8.700657
242.824749, 8.810869
243.014586, 8.921053
243.203153, 9.031112
243.390373, 9.140944
243.576169, 9.250445
243.760465, 9.359507
243.943186, 9.468020
244.124253, 9.575867
244.303592, 9.682933
244.481126, 9.789097
244.656778, 9.894235
244.830472, 9.998220
244.830472, 9.998220
245.006116, 10.102208
245.187793, 10.207420
245.375426, 10.313862
245.568940, 10.421540
245.768258, 10.530460
245.973304, 10.640627
246.184000, 10.752046
246.400272, 10.864722
246.622041, 10.978660
246.849233, 11.093864
247.081770, 11.210339
247.319576, 11.328089
247.562574, 11.447116
247.810689, 11.567426
248.063843, 11.689020
248.321961, 11.811901
248.584966, 11.936073
248.852781, 12.061537
249.125330, 12.188295
249.402536, 12.316348
249.684324, 12.445698
249.970617, 12.576345
250.261338, 12.708290
250.556411, 12.841533
250.855760, 12.976073
251.159307, 13.111910
251.466977, 13.249042
251.778694, 13.387467
252.094380, 13.527184
252.413960, 13.668189
252.737356, 13.810480
253.064493, 13.954054
253.395294, 14.098905
253.729683, 14.245030
254.067583, 14.392423
254.408918, 14.541078
254.753612, 14.690991
255.101587, 14.842153
255.452768, 14.994557
255.807078, 15.148196
256.164441, 15.303061
256.524780, 15.459143
256.888019, 15.616433
257.254081, 15.774919
257.622891, 15.934591
257.994371, 16.095437
258.368445, 16.257445
258.745037, 16.420602
259.124070, 16.584893
259.505468, 16.750306
259.889154, 16.916824
260.275053, 17.084432
260.663087, 17.253113
261.053181, 17.422849
261.445257, 17.593623
261.839240, 17.765416
262.235052, 17.938208
262.632618, 18.111979
263.031861, 18.286706
263.432705, 18.462369
263.835073, 18.638944
264.238889, 18.816408
264.644076, 18.994735
265.050558, 19.173901
265.458259, 19.353879
265.867102, 19.534642
266.277010, 19.716162
266.687908, 19.898410
267.099718, 20.081356
267.512365, 20.264969
267.925772, 20.449219
268.339863, 20.634071
268.754561, 20.819493
269.169789, 21.005451
269.585472, 21.191909
270.001533, 21.378831
270.417895, 21.566180
270.834482, 21.753917
271.251217, 21.942004
271.668025, 22.130401
272.084829, 22.319067
272.501552, 22.507960
272.918118, 22.697038
273.334450, 22.886256
273.750472, 23.075570
274.166108, 23.264935
274.581282, 23.454305
274.995916, 23.643631
275.409934, 23.832865
275.823260, 24.021959
276.235818, 24.210862
276.647531, 24.399524
277.058323, 24.587892
277.468117, 24.775914
277.876836, 24.963536
278.284405, 25.150703
278.690747, 25.337361
279.095786, 25.523454
279.499444, 25.708924
279.499444, 25.708924
279.902405, 25.893350
280.305607, 26.076329
280.709097, 26.257830
281.112918, 26.437824
281.517115, 26.616282
281.921735, 26.793175
282.326821, 26.968475
282.732419, 27.142155
283.138574, 27.314189
283.545331, 27.484551
283.952734, 27.653216
284.360830, 27.820161
284.769662, 27.985360
285.179275, 28.148793
285.589716, 28.310436
286.001028, 28.470268
286.413257, 28.628269
286.826448, 28.784419
287.240646, 28.938698
287.655895, 29.091090
288.072241, 29.241575
288.489729, 29.390138
288.908404, 29.536762
289.328310, 29.681432
289.749493, 29.824134
290.171998, 29.964853
290.595869, 30.103578
291.021153, 30.240296
291.447893, 30.374995
291.876135, 30.507665
292.305923, 30.638297
292.737303, 30.766880
293.170320, 30.893407
293.605019, 31.017871
294.041444, 31.140264
294.479642, 31.260580
294.919655, 31.378814
295.361531, 31.494962
295.805313, 31.609019
296.251047, 31.720984
296.698778, 31.830852
297.148550, 31.938623
297.600409, 32.044296
298.054400, 32.147871
298.510568, 32.249348
298.968957, 32.348728
299.429613, 32.446014
299.892581, 32.541207
300.357905, 32.634311
300.825631, 32.725331
301.295804, 32.814270
301.768468, 32.901134
302.243669, 32.985929
302.721452, 33.068661
303.201861, 33.149337
303.684942, 33.227966
304.170740, 33.304555
304.659300, 33.379113
305.150666, 33.451651
305.644884, 33.522178
306.141998, 33.590704
306.642054, 33.657242
307.145097, 33.721803
307.651171, 33.784398
308.160323, 33.845042
308.672595, 33.903747
309.188035, 33.960528
309.706686, 34.015398
310.228593, 34.068372
310.753803, 34.119466
311.282359, 34.168696
311.814307, 34.216077
312.349691, 34.261627
312.888557, 34.305363
313.430949, 34.347301
313.976914, 34.387460
314.526494, 34.425858
315.079737, 34.462515
315.636686, 34.497448
316.197387, 34.530677
316.761884, 34.562223
317.330223, 34.592105
317.902449, 34.620343
318.478606, 34.646959
319.058740, 34.671974
319.642895, 34.695408
320.231117, 34.717283
320.823451, 34.737622
321.419941, 34.756446
322.020633, 34.773779
322.625571, 34.789642
323.234801, 34.804058
323.848368, 34.817051
324.466316, 34.828644
325.088691, 34.838861
325.715537, 34.847725
326.346900, 34.855260
326.982825, 34.861491
327.623356, 34.866441
327.623356, 34.866441
328.271017, 34.870551
328.928310, 34.874404
329.594984, 34.878000
330.270790, 34.881341
330.955477, 34.884427
331.648794, 34.887258
332.350490, 34.889837
333.060316, 34.892162
333.778020, 34.894236
334.503352, 34.896059
335.236062, 34.897632
335.975899, 34.898955
336.722613, 34.900030
337.475953, 34.900858
338.235668, 34.901438
339.001508, 34.901773
339.773222, 34.901862
340.550560, 34.901707
341.333272, 34.901308
342.121107, 34.900667
342.913814, 34.899784
343.711143, 34.898660
344.512843, 34.897297
345.318663, 34.895694
346.128355, 34.893853
346.941665, 34.891774
347.758345, 34.889459
348.578144, 34.886909
349.400811, 34.884123
350.226095, 34.881104
351.053747, 34.877853
351.883515, 34.874369
352.715149, 34.870654
353.548399, 34.866709
354.383014, 34.862535
355.218743, 34.858133
356.055336, 34.853503
356.892543, 34.848647
357.730112, 34.843566
358.567794, 34.838260
359.405338, 34.832730
360.242493, 34.826978
361.079009, 34.821005
361.914635, 34.814810
362.749121, 34.808397
363.582216, 34.801764
364.413670, 34.794913
365.243233, 34.787846
366.070652, 34.780563
366.895679, 34.773066
367.718063, 34.765354
368.537553, 34.757430
369.353898, 34.749293
370.166848, 34.740946
370.976153, 34.732389
371.781562, 34.723623
372.582824, 34.714650
373.379689, 34.705469
374.171907, 34.696083
374.959227, 34.686492
375.741398, 34.676697
376.518169, 34.666699
377.289292, 34.656500
378.054514, 34.646100
378.813585, 34.635500
379.566255, 34.624701
380.312273, 34.613705
381.051389, 34.602512
381.783352, 34.591124
382.507912, 34.579541
383.224818, 34.567765
383.933820, 34.555796
384.634666, 34.543635
385.327108, 34.531285
386.010893, 34.518745
386.685772, 34.506016
387.351494, 34.493101
388.007808, 34.479999
388.654464, 34.466712
389.291212, 34.453242
389.917800, 34.439588
390.533979, 34.425752
391.139498, 34.411735
391.734106, 34.397539
392.317553, 34.383164
392.889588, 34.368611
393.449961, 34.353881
393.998422, 34.338976
394.534719, 34.323896
395.058602, 34.308643
395.569821, 34.293218
396.068124, 34.277622
396.553263, 34.261855
397.024986, 34.245919
397.483042, 34.229815
397.927181, 34.213544
398.357153, 34.197107
398.772707, 34.180506
399.173592, 34.163740
399.173592, 34.163740
399.573133, 34.145502
399.984982, 34.124439
400.408843, 34.100610
400.844423, 34.074070
401.291430, 34.044878
401.749568, 34.013091
402.218544, 33.978769
402.698064, 33.941970
403.187835, 33.902753
403.687564, 33.861178
404.196955, 33.817304
404.715716, 33.771192
405.243553, 33.722901
405.780172, 33.672492
406.325279, 33.620026
406.878581, 33.565562
407.439785, 33.509161
408.008595, 33.450884
408.584719, 33.390790
409.167863, 33.328941
409.757733, 33.265397
410.354035, 33.200217
410.956476, 33.133463
411.564762, 33.065193
412.178599, 32.995467
412.797694, 32.924345
413.421752, 32.851885
414.050481, 32.778148
414.683586, 32.703191
415.320774, 32.627072
415.961751, 32.549851
416.606223, 32.471583
417.253897, 32.392327
417.904478, 32.312139
418.557674, 32.231076
419.213190, 32.149193
419.870733, 32.066547
420.530008, 31.983192
421.190723, 31.899184
421.852584, 31.814576
422.515296, 31.729422
423.178566, 31.643776
423.842101, 31.557689
424.505607, 31.471216
425.168789, 31.384406
425.831355, 31.297312
426.493010, 31.209985
427.153461, 31.122473
427.812415, 31.034828
428.469576, 30.947098
429.124653, 30.859331
429.777350, 30.771577
430.427375, 30.683882
431.074433, 30.596294
431.718231, 30.508858
432.358475, 30.421621
432.994871, 30.334629
433.627126, 30.247926
434.254946, 30.161556
434.878038, 30.075564
435.496107, 29.989993
436.108859, 29.904886
436.716002, 29.820284
437.317241, 29.736231
437.912283, 29.652766
438.500834, 29.569932
439.082600, 29.487769
439.657288, 29.406316
440.224603, 29.325614
440.784253, 29.245701
441.335943, 29.166615
441.879379, 29.088397
442.414269, 29.011082
442.940318, 28.934709
443.457232, 28.859315
443.964718, 28.784936
444.462483, 28.711610
444.950231, 28.639371
445.427671, 28.568257
445.894507, 28.498301
446.350447, 28.429540
446.795196, 28.362009
447.228461, 28.295741
447.649948, 28.230772
448.059363, 28.167135
448.456413, 28.104865
448.840804, 28.043996
449.212243, 27.984560
449.570434, 27.926593
449.915086, 27.870126
450.245904, 27.815193
450.562594, 27.761828
450.864863, 27.710064
451.152416, 27.659933
451.424961, 27.611469
451.682204, 27.564705
451.923850, 27.519673
452.149606, 27.476408
452.359179, 27.434943
452.359179, 27.434943
452.691686, 27.368026
453.025877, 27.300646
453.361715, 27.232826
453.699164, 27.164587
454.038190, 27.095952
454.378756, 27.026943
454.720825, 26.957581
455.064364, 26.887888
455.409334, 26.817887
455.755701, 26.747597
456.103429, 26.677041
456.452482, 26.606239
456.802824, 26.535212
457.154419, 26.463980
457.507232, 26.392565
457.861226, 26.320985
458.216365, 26.249262
458.572615, 26.177414
458.929938, 26.105463
459.288299, 26.033426
459.647663, 25.961323
460.007993, 25.889174
460.369254, 25.816997
460.731409, 25.744810
461.094423, 25.672633
461.458260, 25.600483
461.822884, 25.528378
462.188259, 25.456337
462.554350, 25.384377
462.921120, 25.312515
463.288534, 25.240769
463.656555, 25.169156
464.025149, 25.097693
464.394279, 25.026395
464.763909, 24.955281
465.134004, 24.884366
465.504527, 24.813666
465.875442, 24.743197
466.246715, 24.672975
466.618309, 24.603015
466.990188, 24.533333
467.362316, 24.463945
467.734657, 24.394864
468.107176, 24.326106
468.479837, 24.257686
468.852604, 24.189618
469.225441, 24.121916
469.598312, 24.054594
469.971181, 23.987667
470.344013, 23.921148
470.716771, 23.855051
471.089420, 23.789390
471.461924, 23.724177
471.834247, 23.659426
472.206353, 23.595150
472.578207, 23.531362
472.949772, 23.468075
473.321013, 23.405300
473.691893, 23.343052
474.062377, 23.281341
474.432430, 23.220180
474.802015, 23.159582
475.171096, 23.099558
475.539637, 23.040120
475.907604, 22.981279
476.274959, 22.923048
476.641667, 22.865438
477.007692, 22.808460
477.372998, 22.752125
477.737550, 22.696445
478.101311, 22.641430
478.464246, 22.587093
478.826319, 22.533442
479.187494, 22.480491
479.547735, 22.428248
479.907006, 22.376725
480.265272, 22.325932
480.622496, 22.275880
480.978643, 22.226580
481.333676, 22.178041
481.687561, 22.130274
482.040261, 22.083290
482.391740, 22.037098
482.741963, 21.991709
483.090893, 21.947133
483.438495, 21.903380
483.784733, 21.860460
484.129570, 21.818384
484.472972, 21.777161
484.814903, 21.736801
485.155326, 21.697315
485.494205, 21.658712
485.831505, 21.621004
486.167190, 21.584198
486.501224, 21.548307
486.833572, 21.513339
487.164196, 21.479305
487.493062, 21.446216
487.820134, 21.414080
487.820134, 21.414080
488.146765, 21.382524
488.474130, 21.351103
488.802190, 21.319800
489.130905, 21.288597
489.460236, 21.257478
489.790145, 21.226425
490.120592, 21.195420
490.451539, 21.164447
490.782945, 21.133489
491.114772, 21.102528
491.446981, 21.071548
491.779533, 21.040532
492.112388, 21.009464
492.445508, 20.978327
492.778854, 20.947105
493.112385, 20.915781
493.446064, 20.884339
493.779850, 20.852763
494.113706, 20.821037
494.447592, 20.789146
494.781468, 20.757073
495.115296, 20.724803
495.449037, 20.692320
495.782650, 20.659608
496.116099, 20.626654
496.449342, 20.593440
496.782342, 20.559952
497.115058, 20.526175
497.447453, 20.492095
497.779486, 20.457696
498.111119, 20.422964
498.442312, 20.387884
498.773027, 20.352442
499.103225, 20.316624
499.432865, 20.280415
499.761910, 20.243802
500.090320, 20.206771
500.418055, 20.169308
500.745078, 20.131400
501.071348, 20.093033
501.396827, 20.054193
501.721476, 20.014869
502.045254, 19.975047
502.368124, 19.934714
502.690047, 19.893857
503.010982, 19.852465
503.330892, 19.810525
503.649736, 19.768025
503.967476, 19.724954
504.284072, 19.681298
504.599487, 19.637047
504.913679, 19.592191
505.226611, 19.546716
505.538243, 19.500613
505.848537, 19.453871
506.157452, 19.406480
506.464950, 19.358429
506.770992, 19.309708
507.075539, 19.260307
507.378552, 19.210217
507.679990, 19.159428
507.979817, 19.107931
508.277991, 19.055718
508.574475, 19.002780
508.869229, 18.949107
509.162213, 18.894693
509.453390, 18.839529
509.742719, 18.783608
510.030162, 18.726922
510.315679, 18.669464
510.599232, 18.611228
510.880781, 18.552207
511.160288, 18.492394
511.437712, 18.431784
511.713016, 18.370371
511.986159, 18.308150
512.257103, 18.245115
512.525809, 18.181262
512.792237, 18.116587
513.056349, 18.051085
513.318105, 17.984753
513.577467, 17.917586
513.834394, 17.849582
514.088849, 17.780738
514.340792, 17.711052
514.590183, 17.640521
514.836984, 17.569143
515.081156, 17.496918
515.322659, 17.423843
515.561455, 17.349918
515.797503, 17.275142
516.030766, 17.199516
516.261205, 17.123039
516.488779, 17.045713
516.713450, 16.967538
516.935178, 16.888516
517.153926, 16.808647
517.369653, 16.727935
517.582320, 16.646382
517.582320, 16.646382
517.793071, 16.564323
518.003271, 16.482070
518.212953, 16.399647
518.422147, 16.317077
518.630885, 16.234382
518.839198, 16.151585
519.047118, 16.068708
519.254676, 15.985772
519.461903, 15.902798
519.668830, 15.819809
519.875490, 15.736823
520.081913, 15.653862
520.288130, 15.570946
520.494173, 15.488093
520.700074, 15.405323
520.905863, 15.322654
521.111572, 15.240106
521.317232, 15.157696
521.522875, 15.075442
521.728532, 14.993361
521.934234, 14.911470
522.140012, 14.829787
522.345899, 14.748327
522.551925, 14.667106
522.758121, 14.586140
522.964520, 14.505444
523.171152, 14.425033
523.378048, 14.344922
523.585240, 14.265126
523.792760, 14.185657
524.000638, 14.106530
524.208906, 14.027758
524.417596, 13.949354
524.626738, 13.871331
524.836364, 13.793700
525.046505, 13.716475
525.257193, 13.639667
525.468459, 13.563287
525.680335, 13.487347
525.892851, 13.411857
526.106039, 13.336828
526.319930, 13.262271
526.534556, 13.188194
526.749948, 13.114609
526.966137, 13.041525
527.183155, 12.968950
527.401033, 12.896894
527.619802, 12.825366
527.839494, 12.754374
528.060140, 12.683926
528.281771, 12.614030
528.504419, 12.544694
528.728115, 12.475926
528.952891, 12.407733
529.178777, 12.340121
529.405805, 12.273098
529.634006, 12.206671
529.863412, 12.140846
530.094054, 12.075629
530.325964, 12.011026
530.559172, 11.947043
530.793710, 11.883686
531.029610, 11.820960
531.266902, 11.758871
531.505619, 11.697424
531.745790, 11.636624
531.987449, 11.576476
532.230625, 11.516985
532.475351, 11.458154
532.721658, 11.399989
532.969577, 11.342494
533.219139, 11.285673
533.470376, 11.229529
533.723318, 11.174068
533.977999, 11.119293
534.234448, 11.065207
534.492697, 11.011814
534.752777, 10.959118
535.014721, 10.907122
535.278558, 10.855829
535.544321, 10.805243
535.812040, 10.755367
536.081748, 10.706203
536.353475, 10.657756
536.627253, 10.610027
536.903113, 10.563020
537.181086, 10.516738
537.461204, 10.471183
537.743498, 10.426358
538.028000, 10.382266
538.314740, 10.338910
538.603751, 10.296292
538.895063, 10.254415
539.188708, 10.213281
539.484716, 10.172894
539.783121, 10.133256
540.083952, 10.094369
540.387241, 10.056236
540.693020, 10.018860
540.693020, 10.018860
541.007475, 9.981178
541.336599, 9.942154
541.680134, 9.901825
542.037822, 9.860232
542.409403, 9.817415
542.794619, 9.773414
543.193212, 9.728268
543.604923, 9.682016
544.029493, 9.634700
544.466665, 9.586359
544.916178, 9.537031
545.377776, 9.486757
545.851198, 9.435576
546.336188, 9.383527
546.832485, 9.330649
547.339832, 9.276979
547.857970, 9.222557
548.386640, 9.167419
548.925584, 9.111604
549.474543, 9.055149
550.033259, 8.998091
550.601474, 8.940465
551.178927, 8.882307
551.765362, 8.823653
552.360519, 8.764538
552.964140, 8.704996
553.575966, 8.645061
554.195739, 8.584767
554.823200, 8.524145
555.458091, 8.463229
556.100152, 8.402049
556.749126, 8.340638
557.404755, 8.279025
558.066778, 8.217241
558.734938, 8.155315
559.408976, 8.093275
560.088634, 8.031149
560.773653, 7.968966
561.463775, 7.906751
562.158740, 7.844531
562.858291, 7.782332
563.562169, 7.720178
564.270115, 7.658094
564.981870, 7.596104
565.697177, 7.534230
566.415776, 7.472495
567.137409, 7.410920
567.861818, 7.349528
568.588743, 7.288338
569.317927, 7.227370
570.049110, 7.166645
570.782035, 7.106179
571.516442, 7.045992
572.252073, 6.986102
572.988670, 6.926524
573.725973, 6.867276
574.463725, 6.808373
575.201666, 6.749831
575.939539, 6.691663
576.677084, 6.633885
577.414044, 6.576510
578.150159, 6.519551
578.885170, 6.463021
579.618821, 6.406931
580.350851, 6.351293
581.081002, 6.296119
581.809016, 6.241418
582.534633, 6.187201
583.257597, 6.133477
583.977647, 6.080257
584.694526, 6.027548
585.407975, 5.975358
586.117735, 5.923697
586.823547, 5.872571
587.525154, 5.821987
588.222296, 5.771953
588.914715, 5.722474
589.602153, 5.673557
590.284351, 5.625207
590.961050, 5.577430
591.631991, 5.530230
592.296917, 5.483613
592.955568, 5.437583
593.607687, 5.392144
594.253014, 5.347300
594.891290, 5.303054
595.522259, 5.259409
596.145660, 5.216370
596.761235, 5.173938
597.368725, 5.132116
597.967873, 5.090907
598.558420, 5.050312
599.140106, 5.010335
599.712674, 4.970976
600.275864, 4.932237
600.829419, 4.894120
601.373080, 4.856626
601.906587, 4.819756
602.429683, 4.783511
602.429683, 4.783511
602.873379, 4.752587
603.321817, 4.721064
603.774894, 4.688969
604.232506, 4.656326
604.694550, 4.623162
605.160921, 4.589503
605.631517, 4.555374
606.106232, 4.520800
606.584964, 4.485805
607.067608, 4.450416
607.554061, 4.414656
608.044219, 4.378549
608.537979, 4.342119
609.035235, 4.305390
609.535885, 4.268384
610.039825, 4.231125
